# wavenlength / nm,    wavenumber / cm-1,  norm. absorbance
7.999367065000000139e+02,1.250098903918718918e+01,1.234837249378104452e-03
7.989643555000000106e+02,1.251620292089488551e+01,2.222229189050393006e-04
7.979916382000000112e+02,1.253145963102649496e+01,8.465665284648383896e-04
7.970184937000000218e+02,1.254676030612161419e+01,1.391722856253487786e-03
7.960450438999999960e+02,1.256210320839107020e+01,1.391336641325927222e-05
7.949320067999999537e+02,1.257969224343477599e+01,3.184331237814707694e-04
7.939577636999999868e+02,1.259512842773654029e+01,3.358622177096857596e-04
7.929830932999999504e+02,1.261060933642984772e+01,3.924582283806431616e-04
7.920080566000000317e+02,1.262613418723144854e+01,-1.514348916963819860e-05
7.910326538000000482e+02,1.264170316100293334e+01,-5.115185240996356970e-05
7.900568848000000344e+02,1.265731644441205361e+01,-1.852632113797295207e-04
7.889412842000000410e+02,1.267521449348435425e+01,3.794978875418891740e-04
7.879647217000000410e+02,1.269092349518571083e+01,7.558028106520770124e-04
7.869877318999999716e+02,1.270667838221227619e+01,1.358756261845225921e-04
7.860104370000000245e+02,1.272247737341431773e+01,5.184850433500133105e-04
7.850327148000000079e+02,1.273832263480594484e+01,-4.209432293924528527e-04
7.840546875000000000e+02,1.275421237756454396e+01,8.089356481070867624e-04
7.829364623999999822e+02,1.277242851782144761e+01,8.853238142952586437e-04
7.819575806000000284e+02,1.278841748976581272e+01,5.982537841003092915e-04
7.809783936000000040e+02,1.280445154686543141e+01,1.779281391315559345e-04
7.799987793000000238e+02,1.282053288464678431e+01,-3.220376562755005031e-05
7.790187988000000132e+02,1.283666070113326185e+01,2.397597087058184293e-04
7.780385132000000112e+02,1.285283418538104350e+01,5.746360417986144881e-04
7.770578003000000535e+02,1.286905555306089610e+01,4.905147819596648254e-04
7.759365844999999808e+02,1.288765112994875217e+01,-1.843192417661949087e-04
7.749550781000000370e+02,1.290397376905710480e+01,8.155421748791796517e-04
7.739732665999999881e+02,1.292034290012259135e+01,2.862827677103520830e-06
7.729910277999999835e+02,1.293676076481880166e+01,-7.015569566451604572e-05
7.720084838999999874e+02,1.295322552607507660e+01,6.518686323704380239e-04
7.710255127000000357e+02,1.296973943829913445e+01,7.190474987050392893e-04
7.700422363000000132e+02,1.298630065806430522e+01,-2.991720398965622921e-04
7.690585327000000007e+02,1.300291144926529796e+01,2.707387849313263933e-04
7.679338989000000311e+02,1.302195412173384881e+01,2.709680825965218648e-04
7.669494628999999577e+02,1.303866875685375781e+01,-4.567483621781425504e-04
7.659646606000000020e+02,1.305543259941880407e+01,1.047993329761931106e-04
7.649794921999999815e+02,1.307224586013549050e+01,-3.221302838824314585e-04
7.639939574999999650e+02,1.308910875777443650e+01,3.313901659368524038e-04
7.630081176999999570e+02,1.310602045774276725e+01,2.648062770714639967e-04
7.620218505999999934e+02,1.312298327420166544e+01,1.616276171836853056e-04
7.610352172999999993e+02,1.313999637950789001e+01,3.240515349777140430e-04
7.600482788000000482e+02,1.315705893813544414e+01,7.181573768055409543e-04
7.590609130999999934e+02,1.317417328098223805e+01,6.794843393039992326e-04
7.579321288999999524e+02,1.319379350564432940e+01,6.057729424382858044e-04
7.569440307999999504e+02,1.321101639368393954e+01,2.204750162045765319e-04
7.559555663999999524e+02,1.322829071505068299e+01,-3.904775993178163712e-04
7.549667968999999630e+02,1.324561562317893859e+01,-2.549361202578956961e-04
7.539776001000000178e+02,1.326299348770268516e+01,3.571629841460891193e-04
7.529880981000000020e+02,1.328042239343862541e+01,-2.111211513994226620e-04
7.519982300000000350e+02,1.329790364001255654e+01,1.634037217656723559e-04
7.510079955999999584e+02,1.331543746349962376e+01,1.325816288650756786e-04
7.500173949999999650e+02,1.333302409606113237e+01,1.556405179753205339e-04
7.490264892999999802e+02,1.335066268396657740e+01,2.562088047529242495e-04
7.480351563000000397e+02,1.336835563914257108e+01,-3.482023216210485710e-04
7.470435181000000284e+02,1.338610102050492578e+01,1.603958125821713617e-04
7.460515136999999868e+02,1.340390015483725783e+01,1.257073505139268512e-04
7.450592040999999881e+02,1.342175218421679261e+01,7.661930766013344616e-05
7.440664672999999993e+02,1.343965954585627465e+01,1.668986865218376290e-04
7.429315186000000040e+02,1.346019081118575578e+01,2.060340388040143769e-04
7.419380492999999888e+02,1.347821426524054189e+01,5.534308104998974945e-04
7.409442748999999822e+02,1.349629160890625634e+01,-3.027745710671098447e-04
7.399501342999999451e+02,1.351442419759825775e+01,-1.288464991794271834e-04
7.389556274000000258e+02,1.353261228307414221e+01,4.340392090689312713e-04
7.379607544000000416e+02,1.355085611311473137e+01,3.275201741625704144e-04
7.369655761999999868e+02,1.356915481936454704e+01,9.935782721889110112e-05
7.359700317000000496e+02,1.358750977522988634e+01,3.535506213767086064e-04
7.349741211000000476e+02,1.360592123302720680e+01,-5.430018649461627758e-05
7.339778442000000496e+02,1.362438945401616408e+01,5.074400024194778737e-04
7.329812621999999465e+02,1.364291355823420560e+01,3.560448904998724851e-04
7.319843750000000000e+02,1.366149379896257976e+01,-2.473005344541378409e-04
7.309870604999999841e+02,1.368013271419597210e+01,-3.953935637518819421e-04
7.299894408999999769e+02,1.369882828396949748e+01,1.191483328388050520e-04
7.289914551000000529e+02,1.371758191408188843e+01,-4.147417735488006358e-04
7.279931640999999445e+02,1.373639272061400973e+01,2.719711718168514657e-04
7.269945067999999537e+02,1.375526211885264338e+01,-8.789901460330320603e-05
7.259954834000000119e+02,1.377419037535571533e+01,6.665393963214073152e-05
7.249961547999999993e+02,1.379317660347955332e+01,2.261485371376641715e-04
7.239964599999999564e+02,1.381222223103135072e+01,4.261813107856534289e-04
7.229964599999999564e+02,1.383132636638359259e+01,-1.515063003850072420e-04
7.219960938000000397e+02,1.385049044707172250e+01,-1.709313527805026800e-04
7.209953613000000132e+02,1.386971475373901264e+01,1.824259986429707561e-04
7.199943236999999954e+02,1.388899838627991734e+01,3.352315030037809505e-04
7.189929198999999471e+02,1.390834279896780501e+01,-1.759662026078385219e-04
7.179912109000000555e+02,1.392774709242614151e+01,1.519452330733461417e-04
7.169891357000000198e+02,1.394721272901429820e+01,2.953872999465330341e-04
7.159866942999999537e+02,1.396673999616252537e+01,2.024525943155191263e-04
7.149839478000000099e+02,1.398632798787989806e+01,2.528271625775106550e-04
7.139808960000000297e+02,1.400597698905377975e+01,-7.693838374103122114e-05
7.129774780000000192e+02,1.402568848044313654e+01,-5.707646887687727283e-05
7.119736937999999782e+02,1.404546275667467725e+01,-1.282476700792779233e-05
7.109696044999999458e+02,1.406529890547522044e+01,-7.957133091331365182e-05
7.099652099999999564e+02,1.408519721691715176e+01,-4.661487324737700563e-04
7.089604491999999709e+02,1.410515919651671446e+01,-8.034402290732358223e-05
7.079553223000000344e+02,1.412518514235061318e+01,-2.547825361826002785e-06
7.069498900999999478e+02,1.414527414182845888e+01,-2.138375357589551709e-05
7.059441527999999835e+02,1.416542648641086721e+01,-2.635437480985303692e-04
7.049380492999999888e+02,1.418564370291822208e+01,2.212200241497898606e-04
7.039316406000000370e+02,1.420592487002920379e+01,-1.667261143204946288e-04
7.030686646000000337e+02,1.422336181870563721e+01,1.030809250722295345e-04
7.020616455000000542e+02,1.424376344171047393e+01,-9.548233708337419852e-05
7.010542603000000099e+02,1.426423112487859512e+01,-9.201977798814946284e-05
7.000465698000000430e+02,1.428476394485720036e+01,0.000000000000000000e+00
6.990385132000000112e+02,1.430536345447239555e+01,-8.445016696306634435e-06
6.980301514000000225e+02,1.432602872518265791e+01,-1.632645903351102640e-04
6.970214233000000377e+02,1.434676132715646979e+01,-2.472719453092970653e-04
6.960123900999999478e+02,1.436756032254432291e+01,-2.178140610602356559e-04
6.950030517999999802e+02,1.438842602791575231e+01,-3.225305363551187019e-04
6.939934081999999762e+02,1.440935876601025178e+01,-4.433992789769823585e-05
6.929833373999999822e+02,1.443036139587272082e+01,-1.658965023975523373e-04
6.919730224999999564e+02,1.445143043853273923e+01,9.239855651546755781e-05
6.909623413000000482e+02,1.447256876718586405e+01,-2.339734463647612922e-04
6.899513550000000350e+02,1.449377543435652704e+01,-1.528223211453190726e-04
6.889400634999999511e+02,1.451505077117641207e+01,-9.548233708337419852e-05
6.879284057999999504e+02,1.453639639777759029e+01,-3.537480306580767465e-04
6.870610351999999921e+02,1.455474766821706112e+01,-2.959410425956794026e-04
6.860487670999999636e+02,1.457622326510555233e+01,-2.002519813536026328e-04
6.850361937999999782e+02,1.459776883397719338e+01,-1.740495447777469344e-04
6.840233154000000013e+02,1.461938471227730929e+01,4.133912130121981444e-04
6.830100707999999941e+02,1.464107255151763987e+01,-1.826886076207653311e-04
6.819965819999999894e+02,1.466283008438889901e+01,-5.302278094305829751e-04
6.809827271000000337e+02,1.468466027410932107e+01,1.870385397682396199e-04
6.799685058999999683e+02,1.470656348526626722e+01,-1.842047546174207563e-04
6.789540405000000192e+02,1.472853743183519626e+01,-2.472147664640008237e-04
6.779392090000000053e+02,1.475058510740304385e+01,-7.019259030180314976e-04
6.770690918000000238e+02,1.476954142658443558e+01,-3.791306874654377500e-04
6.760536498999999822e+02,1.479172548137144538e+01,-7.006984966610138891e-04
6.750379639000000225e+02,1.481398163478905872e+01,-1.002898950139119975e-04
6.740219115999999531e+02,1.483631292677399749e+01,1.794751394021984827e-04
6.730054932000000463e+02,1.485871972968912402e+01,-3.179848117645132444e-04
6.719888306000000284e+02,1.488119972332171059e+01,9.504509124070030008e-06
6.709718017999999802e+02,1.490375597480138481e+01,-5.064321910313900532e-04
6.699544677999999749e+02,1.492638750934530378e+01,-5.667020132145675522e-04
6.689368286000000126e+02,1.494909470140660801e+01,-6.001723826919000328e-04
6.680643311000000040e+02,1.496861834179130568e+01,-7.762438881405889874e-04
6.670460815000000139e+02,1.499146802198852235e+01,4.088344944771938602e-05
6.660275878999999577e+02,1.501439306970785736e+01,-2.679388933771174907e-05
6.650087280000000192e+02,1.503739662195832061e+01,9.689486419554360142e-05
6.639895629999999755e+02,1.506047769006875292e+01,3.590150912375053750e-05
6.629700317000000496e+02,1.508363805579237749e+01,1.287148713228822414e-04
6.619502562999999782e+02,1.510687533515802095e+01,-1.984499395748522848e-04
6.609301758000000291e+02,1.513019130635977838e+01,-4.183712125746682185e-04
6.600555419999999458e+02,1.515024018993844201e+01,-1.474271886422364479e-05
6.590348510999999689e+02,1.517370436982039017e+01,-1.364286576470905010e-04
6.580138550000000350e+02,1.519724839228499214e+01,1.825978591021208230e-04
6.569925537000000304e+02,1.522087266238067826e+01,5.809210665101555274e-05
6.559708861999999954e+02,1.524457900552477341e+01,1.689039593108383188e-04
6.549489746000000423e+02,1.526836499913194878e+01,-3.549771188602295741e-04
6.540728149000000258e+02,1.528881765484914901e+01,-5.599617557516771557e-04
6.530502930000000106e+02,1.531275631783538671e+01,-1.001468181646825823e-04
6.520274657999999590e+02,1.533677724408522991e+01,1.483073209261334343e-04
6.510043944999999894e+02,1.536087941108360688e+01,-1.551969281261214725e-04
6.499809569999999894e+02,1.538506611971402727e+01,1.281706369049218021e-04
6.489572143999999980e+02,1.540933636009517471e+01,-1.635506140197725178e-04
6.479331664999999703e+02,1.543369056721994603e+01,-1.139105098063537472e-04
6.470551758000000291e+02,1.545463257849115202e+01,6.104147851173258484e-05
6.460305786000000126e+02,1.547914345118276103e+01,5.897980307091243507e-05
6.450056763000000046e+02,1.550373952887335172e+01,-4.521479162252384936e-04
6.439804688000000397e+02,1.552842125574725074e+01,-4.471197904447568486e-05
6.429549561000000040e+02,1.555318907666166517e+01,2.297590235968293045e-04
6.419290770999999722e+02,1.557804492230875582e+01,-4.159210575771092903e-05
6.410495604999999841e+02,1.559941791739205286e+01,-1.918136914822224891e-04
6.400231933999999683e+02,1.562443377540261658e+01,-2.427819766352163212e-04
6.389965210000000297e+02,1.564953747220792657e+01,-1.423796641365968865e-04
6.379695434999999861e+02,1.567472946300609671e+01,-2.605982572051966629e-04
6.369422607000000198e+02,1.570001021601234648e+01,-1.568848711306434346e-04
6.360614623999999822e+02,1.572175110604531412e+01,-8.532337573449863197e-05
6.350336303999999927e+02,1.574719750464415746e+01,9.987334303382882457e-05
6.340054932000000463e+02,1.577273400192047248e+01,-1.519927092223767541e-04
6.329769896999999901e+02,1.579836259883555805e+01,-3.767082131829865350e-05
6.319482421999999815e+02,1.582408072722383530e+01,2.406767060127492372e-04
6.310662231000000020e+02,1.584619748919025994e+01,1.277410185383028192e-04
6.300369263000000046e+02,1.587208555969364632e+01,4.509604191031789519e-04
6.290073853000000099e+02,1.589806452786016244e+01,4.205604415507983103e-04
6.279774780000000192e+02,1.592413796725366026e+01,3.486481755993939800e-04
6.269472656000000370e+02,1.595030483214535799e+01,2.618831013238739598e-04
6.260640259000000469e+02,1.597280723105671640e+01,4.257224565388988222e-04
6.250332641999999623e+02,1.599914848180011617e+01,6.342157386937709047e-04
6.240022582999999941e+02,1.602558302792603939e+01,9.659037811285994639e-04
6.229709473000000344e+02,1.605211293293965724e+01,5.798013560257018811e-04
6.219392699999999650e+02,1.607874029244045033e+01,8.220914257401207292e-04
6.210548095999999987e+02,1.610163844708111114e+01,8.065515973463821802e-04
6.200226440000000139e+02,1.612844320569685408e+01,6.247439914351064078e-04
6.189901733000000377e+02,1.615534532105309395e+01,9.544933675933116356e-04
6.179574585000000297e+02,1.618234372358497808e+01,1.081849350051388662e-03
6.170719604000000800e+02,1.620556538254918166e+01,1.192398807456096239e-03
6.160386962999999696e+02,1.623274651423873749e+01,1.174073463094721511e-03
6.150051270000000159e+02,1.626002704852247405e+01,1.452224692390098821e-03
6.139712524000000258e+02,1.628740753074385950e+01,1.929326456086373834e-03
6.129370728000000099e+02,1.631488849959476539e+01,2.468491965049729540e-03
6.120504150000000436e+02,1.633852335513897103e+01,2.652157659687163441e-03
6.110156859999999597e+02,1.636619194748463713e+01,3.107570208449146002e-03
6.099807129000000714e+02,1.639396097043382383e+01,3.346273853424369237e-03
6.089454345999999987e+02,1.642183261718471243e+01,3.578254963928484238e-03
6.080578613000000132e+02,1.644580332967072422e+01,4.076061675780505086e-03
6.070220337000000654e+02,1.647386658939988280e+01,4.294713627975562525e-03
6.059859009000000469e+02,1.650203409872765903e+01,4.990581928748263202e-03
6.049495239000000311e+02,1.653030476911827407e+01,5.246896164688989901e-03
6.040609740999999531e+02,1.655462019359744019e+01,5.669280251422089377e-03
6.030240479000000278e+02,1.658308658638819111e+01,6.340472870407898309e-03
6.019868774000000258e+02,1.661165778760877743e+01,7.059282337243137119e-03
6.009494019000001117e+02,1.664033605555369633e+01,8.153497582942771313e-03
6.000598755000000892e+02,1.666500362429248838e+01,8.979644577094035920e-03
5.990219115999999531e+02,1.669388015087760735e+01,9.619736000228976819e-03
5.979835815000000139e+02,1.672286716453936606e+01,1.045536641182173015e-02
5.969450073000000430e+02,1.675196186869925796e+01,1.146843933045775879e-02
5.960546264999999266e+02,1.677698579192221118e+01,1.284200130785208456e-02
5.950155029000000013e+02,1.680628479638223638e+01,1.429479724313725483e-02
5.939761352999998962e+02,1.683569323024955011e+01,1.562250327676225313e-02
5.929364624000000958e+02,1.686521344888031848e+01,1.726374542563504505e-02
5.920451050000000350e+02,1.689060498186197989e+01,1.888475709997851359e-02
5.910049437999999782e+02,1.692033223225297789e+01,2.080506862333653464e-02
5.899644775000000436e+02,1.695017307207280055e+01,2.253352596591582171e-02
5.890724486999999954e+02,1.697584061530732313e+01,2.447930048571753461e-02
5.880314941000000317e+02,1.700589186180461709e+01,2.618998630358720936e-02
5.869902343999999630e+02,1.703605854741627113e+01,2.820301152079030330e-02
5.859486693999999716e+02,1.706634134051333263e+01,3.087643934977817375e-02
5.850557251000000178e+02,1.709238893148299709e+01,3.324968040785823004e-02
5.840136718999999630e+02,1.712288681096542931e+01,3.562253441375524271e-02
5.829713745000000245e+02,1.715350090487161694e+01,3.850111505692509206e-02
5.819287719999999808e+02,1.718423367456387041e+01,4.099725820672865673e-02
5.810349121000000423e+02,1.721066977517339325e+01,4.348652539355787189e-02
5.799918212999999696e+02,1.724162243803005978e+01,4.679241320253874070e-02
5.789484253000000535e+02,1.727269574110714601e+01,4.891244424685958075e-02
5.780538940000000139e+02,1.729942502558420614e+01,5.189510398991160900e-02
5.770100098000000344e+02,1.733072187684602383e+01,5.458059890495073341e-02
5.759658812999999782e+02,1.736213953755250117e+01,5.748951074448538368e-02
5.750706787000000304e+02,1.738916688050574422e+01,5.985799535339163258e-02
5.740260009999999511e+02,1.742081366101742290e+01,6.256403539301574890e-02
5.729810790999999881e+02,1.745258327850428515e+01,6.565869333739446367e-02
5.719359130999999934e+02,1.748447644386959965e+01,6.851838479280973615e-02
5.710397948999999471e+02,1.751191438724720228e+01,7.020010547038441073e-02
5.699940795999999636e+02,1.754404187323773101e+01,7.347023909087442572e-02
5.689481200999999828e+02,1.757629500250808618e+01,7.541714168593709189e-02
5.680513915999999881e+02,1.760404102141803406e+01,7.720400535406621301e-02
5.670048828000000185e+02,1.763653242387915299e+01,7.953385875252050319e-02
5.659581908999999769e+02,1.766914970184947009e+01,8.136879202154281843e-02
5.650607300000000350e+02,1.769721282878744617e+01,8.296544706128834712e-02
5.640135497999999643e+02,1.773007049838787452e+01,8.513305924355814291e-02
5.629660033999999769e+02,1.776306196041251084e+01,8.677875254254134585e-02
5.620679321000000073e+02,1.779144375420595026e+01,8.766259277546231687e-02
5.610199585000000297e+02,1.782467780065617546e+01,8.828876466597411488e-02
5.599717407000000549e+02,1.785804402825644033e+01,9.002445395930330774e-02
5.590729979999999841e+02,1.788675188351700740e+01,9.000984101976614027e-02
5.580242309999999861e+02,1.792036876620865016e+01,9.059248856948159956e-02
5.569752197000000251e+02,1.795412012294951865e+01,9.175458788534836263e-02
5.559259643999999980e+02,1.798800674977072589e+01,9.258053925318524002e-02
5.550263671999999815e+02,1.801716205024286310e+01,9.228805638310819126e-02
5.539766234999999597e+02,1.805130320629855945e+01,9.241073078955983067e-02
5.529266357000000198e+02,1.808558198202930001e+01,9.220418703889009249e-02
5.520263671999999815e+02,1.811507673215360370e+01,9.267286999528237534e-02
5.509758911000000126e+02,1.814961445960080866e+01,9.252326306422622992e-02
5.499251099000000522e+02,1.818429422475076507e+01,9.267583403203258352e-02
5.490242919999999458e+02,1.821413031392789605e+01,9.283429984759140885e-02
5.479730224999999564e+02,1.824907356639076283e+01,9.264279130348981872e-02
5.470717773000000079e+02,1.827913706196592614e+01,9.256201017586590529e-02
5.460200194999999894e+02,1.831434680574015061e+01,9.277000280250495556e-02
5.449680176000000529e+02,1.834970067425108908e+01,9.337149401847784358e-02
5.440661621000000423e+02,1.838011752357792616e+01,9.340705362520959620e-02
5.430136718999999630e+02,1.841574258160036592e+01,9.356189311151699717e-02
5.419609375000000000e+02,1.845151432154646898e+01,9.364915698261108701e-02
5.410584106000000020e+02,1.848229286170900565e+01,9.372977253710969292e-02
5.400052490000000489e+02,1.851833851340952108e+01,9.454719622225594977e-02
5.389517822000000251e+02,1.855453554523935722e+01,9.522454243200623170e-02
5.380486449999999650e+02,1.858568011076396331e+01,9.554976166478279520e-02
5.369946899000000258e+02,1.862215807359699582e+01,9.606538004615994275e-02
