00,,
Wavelength (nm),Abs,
500.0595703,0.001084733056,
498.9966736,0.001069007209,
497.9335632,0.0009761688998,
497.0221252,0.0008455853676,
495.9585571,0.0007627004525,
495.0467529,0.001061378047,
493.9827576,0.0008615883999,
493.0705872,0.001082397532,
492.0061646,0.0009789968608,
490.9414978,0.0009789709002,
490.0287476,0.0009884407045,
488.9636536,0.001062727417,
488.0505371,0.001096125576,
486.9850159,0.000928771391,
486.0715637,0.001021833159,
485.0056152,0.001073314925,
483.9394226,0.0009734188206,
483.0253906,0.000821231748,
481.9588013,0.0008736494347,
481.0444031,0.0008227359504,
479.9773865,0.0008843620308,
479.0626221,0.0008691881085,
477.9951782,0.001088210498,
476.9275208,0.0009950307431,
476.012207,0.001001024153,
474.9441223,0.0007719840505,
474.0284424,0.001051283907,
472.9599304,0.0008811975131,
472.0439148,0.000818275148,
470.9750061,0.0008677615551,
470.0586243,0.0009965614881,
468.9892883,0.0009518598672,
468.0725708,0.0009347898304,
467.0028381,0.000716933806,
465.9328613,0.0009944859194,
465.0155945,0.0007461305941,
463.9452515,0.0007039955817,
463.0276184,0.0007319468423,
461.9568481,0.001034080284,
461.0388794,0.0008800562355,
459.9677124,0.0008199868607,
459.0493774,0.0009427540353,
457.9778137,0.0008703553467,
457.0591431,0.0008597468841,
455.9871826,0.001009041443,
455.0681763,0.000772217405,
453.9957886,0.0008821832016,
453.0764465,0.0009377212846,
452.0036621,0.001424976275,
450.9306946,0.0008635596605,
450.0108032,0.0009077074938,
448.937439,0.001038179966,
448.0172119,0.0009437138797,
446.9434509,0.0008976169047,
446.0229187,0.0007409185637,
444.948761,0.0008152926457,
444.0278625,0.0009599540499,
442.9533081,0.0009179539629,
442.0321045,0.0009654281312,
440.9571533,0.0007293279632,
440.035614,0.0007877250318,
438.9602966,0.0009441030561,
438.0384216,0.0009718362708,
436.9627075,0.0008408389986,
436.0404968,0.001085849013,
434.9644165,0.0009241279331,
434.0418701,0.0009968988597,
432.9654236,0.0009564257925,
432.0425415,0.001058575581,
430.9656982,0.0009267998394,
430.042511,0.0007814493147,
428.9653015,0.001047132188,
428.0417786,0.0008204796468,
426.9641724,0.001016462105,
426.0403748,0.0009906460764,
424.9623718,0.0009688007995,
424.0382385,0.00106501102,
422.9598999,0.0008588909404,
422.0354309,0.0007123444811,
420.9567261,0.0007507202681,
420.0319214,0.0006300553214,
418.9528503,0.0006969691603,
418.0277405,0.0007344360929,
416.9483032,0.001075183274,
416.0228882,0.0008656606078,
414.9430847,0.0007462602225,
414.0173645,0.000844729424,
412.9371643,0.0008857627399,
412.0111389,0.00104453729,
410.930603,0.0009979885072,
410.0042725,0.001155817881,
408.9233398,0.00113533996,
407.9967041,0.001017266535,
407.0699158,0.001265647123,
405.9884949,0.000944336527,
405.0614014,0.001082760864,
403.9796143,0.001008678228,
403.0522156,0.0006217858172,
401.9700928,0.001139336848,
401.0423889,0.001276161755,
399.9598999,0.001301942859,
399.0318909,0.001008989639,
397.9490662,0.001427859068,
397.0207825,0.001189794275,
395.9375916,0.001502376865,
395.0090027,0.001612267806,
393.9254456,0.001632638392,
392.9965515,0.00185225415,
392.0675354,0.001803617226,
390.98349,0.001794545562,
390.0541687,0.001987587661,
388.9697876,0.002325702459,
388.0401917,0.002771113766,
386.9554749,0.00350970705,
386.0255737,0.005294159986,
384.9404907,0.008019652218,
384.0103149,0.01189176645,
382.9249268,0.01864351332,
381.9944458,0.02551176958,
381.0638123,0.04212554172,
379.9779358,0.06236471236,
379.0470276,0.1008183286,
377.9608154,0.1710943878,
377.0296326,0.2353340238,
375.9430847,0.343617171,
375.0116272,0.3537925482,
373.9247437,0.2899321318,
372.9930115,0.225563243,
372.0611267,0.1815582216,
370.9737549,0.1672009975,
370.0415955,0.166909188,
368.9539185,0.1447351873,
368.0214844,0.1133666709,
366.9335022,0.08738838881,
366.0007935,0.07573903352,
365.0679626,0.07761467993,
363.9794922,0.08171318471,
363.0463562,0.08720289171,
361.9575806,0.09935608506,
361.0242004,0.1273173541,
359.9350891,0.1657088101,
359.0014343,0.2128430605,
358.0676575,0.2746917009,
356.9780884,0.3297844529,
356.0440674,0.3609521687,
354.9541626,0.3314012885,
354.0198669,0.2823112309,
352.9296875,0.2445022464,
351.9950867,0.2348449826,
351.0603943,0.2164666206,
349.9697571,0.1846099943,
349.03479,0.1528905928,
347.9438477,0.12772578,
347.0086365,0.120609954,
346.0732727,0.1186129376,
344.9819031,0.119281143,
344.0462952,0.1246133149,
342.9545898,0.1425970644,
342.0187378,0.1597323567,
340.9267578,0.1994625777,
339.9906311,0.2249919772,
339.0543823,0.2379020452,
337.9619751,0.2277734876,
337.0254822,0.2097011656,
335.9327393,0.1797578484,
334.9960022,0.1684475243,
334.0591431,0.1553239971,
332.9660034,0.1327583194,
332.0289001,0.1169787869,
330.9354553,0.09790500253,
329.9980774,0.09361088276,
329.0606079,0.08939222246,
327.9667358,0.08996768296,
327.0290222,0.09211336076,
325.9348755,0.1018792167,
324.9969177,0.111575447,
324.0588379,0.1189276278,
322.9642639,0.1215526611,
322.0259399,0.1180679128,
320.9310913,0.1035355553,
319.9925232,0.09549312294,
319.0538635,0.08668351173,
317.9586182,0.07576069981,
317.0196838,0.06766091287,
315.9241638,0.05630786717,
314.9850159,0.05202748999,
314.0457458,0.04926815629,
312.9497986,0.04765661806,
312.0103149,0.04716097564,
311.0707092,0.04917772859,
309.9743652,0.05104213208,
309.0345459,0.05176838487,
307.9379272,0.04977811128,
306.9978638,0.04705191404,
306.0576782,0.04159121215,
304.9606934,0.03746713698,
304.0202637,0.0326708965,
302.9230042,0.02791354246,
301.9823608,0.02527838014,
301.041626,0.02198959701,
299.9439697,0.02015387826,
299.0030212,0.01950245537,
298.0619507,0.01852077246,
296.9639282,0.01831000857,
296.022644,0.01808277704,
294.9243164,0.0175793115,
293.9828186,0.01685621776,
293.0411987,0.01604592055,
291.9425354,0.01480779052,
291.0007019,0.01244336367,
290.0587769,0.0111257527,
288.9597168,0.008370651864,
288.0175781,0.006236067973,
287.0753174,0.004492942709,
285.9759216,0.003234950826,
285.0334473,0.002960263984,
283.9337769,0.003434896236,
282.9910889,0.003312257351,
282.0483093,0.003656469751,
280.9483032,0.003712859703,
280.0053101,0.003962473944,
279.0622253,0.003936978523,
277.9618225,0.003779023187,
277.0185547,0.004096454475,
276.0751648,0.004873379134,
274.9744263,0.006022807676,
274.0308228,0.007035064511,
272.9298401,0.008943448775,
271.9860229,0.009928775951,
271.0421448,0.01196328551,
269.9407959,0.01454501413,
268.9967041,0.01701967604,
268.0525208,0.01944254152,
266.9508362,0.02337783948,
266.0064392,0.02940200642,
265.0619812,0.03472738713,
263.9599609,0.04548719153,
263.0152588,0.05556181073,
262.0704956,0.07003287226,
260.9681396,0.1134017855,
260.0231628,0.1486558169,
259.078125,0.2068437189,
257.9754333,0.356513083,
257.0301819,0.5851938128,
255.9272614,1.337902665,
254.9818115,1.965282321,
254.0362854,2.330343962,
252.9330444,2.614264488,
251.9873199,2.775341272,
251.0415039,2.750957966,
249.938324,2.85799408,

