2,,
Wavelength (nm),Abs,
500.0595703,-0.0002224587952,
498.9966736,-0.0003304897982,
497.9335632,-0.0003330764303,
497.0221252,-0.0004266499891,
495.9585571,-0.0004737653362,
495.0467529,-0.0002002076944,
493.9827576,-0.000388995395,
493.0705872,-0.0002848592994,
492.0061646,-0.0002245286159,
490.9414978,-0.0002054342185,
490.0287476,-0.0002567646734,
488.9636536,-0.0003327142913,
488.0505371,-0.0002042440319,
486.9850159,-0.0002163010504,
486.0715637,-0.0001497503981,
485.0056152,-0.00038196065,
483.9394226,-0.0003908057697,
483.0253906,-0.0001707102929,
481.9588013,-0.0003036397684,
481.0444031,-0.000386771193,
479.9773865,-0.0001485600515,
479.0626221,-0.0002953102521,
477.9951782,-0.0002301170607,
476.9275208,-0.0004267017066,
476.012207,-0.0003909092338,
474.9441223,-0.000552003854,
474.0284424,-0.0004486308899,
472.9599304,-0.0003600798082,
472.0439148,-0.0004335805424,
470.9750061,-0.0003849607601,
470.0586243,-0.000412891939,
468.9892883,-0.0004768165527,
468.0725708,-0.0002862562251,
467.0028381,-0.000661607075,
465.9328613,-0.000513015606,
465.0155945,-0.0004927962436,
463.9452515,-0.0004289774224,
463.0276184,-0.0003258338547,
461.9568481,-0.0002210099192,
461.0388794,-0.0003646836849,
459.9677124,-0.0005003979895,
459.0493774,-0.0004377698642,
457.9778137,-0.0002616283309,
457.0591431,-0.000513325911,
455.9871826,-0.0003308001906,
455.0681763,-0.0007285962347,
453.9957886,-0.0004533372412,
453.0764465,-0.000331576186,
452.0036621,8.201449236E-5,
450.9306946,-0.0004150643072,
450.0108032,-0.0003012082016,
448.937439,-0.0002456401417,
448.0172119,-0.0003634422028,
446.9434509,-0.0003889436484,
446.0229187,-0.000495795568,
444.948761,-0.0003299207601,
444.0278625,-0.0004496652691,
442.9533081,-0.0004199779069,
442.0321045,-0.0003678390931,
440.9571533,-0.0005420761299,
440.035614,-0.0002923095017,
438.9602966,-0.0003688219294,
438.0384216,-0.0002828932484,
436.9627075,-0.0002703724313,
436.0404968,-0.0004007886455,
434.9644165,-0.0003943748015,
434.0418701,-0.0003264546394,
432.9654236,-0.0003544930369,
432.0425415,-0.0003422329319,
430.9656982,-0.0003244887921,
430.042511,-0.0004070989671,
428.9653015,-0.0001874774898,
428.0417786,-0.0005069654435,
426.9641724,-0.0003792191274,
426.0403748,-0.0002848592994,
424.9623718,-0.0003827365581,
424.0382385,-0.0001818884921,
422.9598999,-0.0001826129883,
422.0354309,-0.0003190567659,
420.9567261,-0.0003860470024,
420.0319214,-0.0005961069837,
418.9528503,-0.0005050003529,
418.0277405,-0.0005502975546,
416.9483032,-0.0001939461363,
416.0228882,-0.0004699901037,
414.9430847,-0.0004527166311,
414.0173645,-0.0006938623847,
412.9371643,-0.0004571126483,
412.0111389,-0.0002646292851,
410.930603,-0.0002526253229,
410.0042725,-0.0004570609308,
408.9233398,-0.000187373982,
407.9967041,-0.0003631835571,
407.0699158,-0.0004082885862,
405.9884949,-0.0001553915499,
405.0614014,-0.0004575781059,
403.9796143,-0.0002860492677,
403.0522156,-0.0003822710132,
401.9700928,-0.0002880152897,
401.0423889,0.0001003714933,
399.9598999,4.478503251E-5,
399.0318909,-0.0001652763458,
397.9490662,0.0001052909938,
397.0207825,0.0001032972941,
395.9375916,0.0003093698178,
395.0090027,0.0004111343005,
393.9254456,0.0005373366876,
392.9965515,0.0006592980935,
392.0675354,0.0007259570993,
390.98349,0.0003586428065,
390.0541687,0.0009258919163,
388.9697876,0.001480375999,
388.0401917,0.001891796826,
386.9554749,0.002785572782,
386.0255737,0.005043831654,
384.9404907,0.008087265305,
384.0103149,0.01322785299,
382.9249268,0.02164325491,
381.9944458,0.03031340614,
381.0638123,0.05020808056,
379.9779358,0.07455237955,
379.0470276,0.1192324311,
377.9608154,0.2057613134,
377.0296326,0.2868157327,
375.9430847,0.4205923975,
375.0116272,0.4314678609,
373.9247437,0.3593548238,
372.9930115,0.2718676031,
372.0611267,0.22332865,
370.9737549,0.2045305371,
370.0415955,0.2031787187,
368.9539185,0.1785323918,
368.0214844,0.1401953846,
366.9335022,0.1071744189,
366.0007935,0.09183134884,
365.0679626,0.09419614077,
363.9794922,0.09936662763,
363.0463562,0.1062488183,
361.9575806,0.1214707866,
361.0242004,0.1558573544,
359.9350891,0.2008512616,
359.0014343,0.2604163289,
358.0676575,0.3329964876,
356.9780884,0.4009611607,
356.0440674,0.4417317212,
354.9541626,0.403069824,
354.0198669,0.3451477289,
352.9296875,0.3000501394,
351.9950867,0.2876102626,
351.0603943,0.2649393976,
349.9697571,0.2271420509,
349.03479,0.186306119,
347.9438477,0.1547786891,
347.0086365,0.1469888687,
346.0732727,0.1452214718,
344.9819031,0.1454474926,
344.0462952,0.1525849998,
342.9545898,0.1746762246,
342.0187378,0.195774287,
340.9267578,0.242838487,
339.9906311,0.2735509276,
339.0543823,0.2910061479,
337.9619751,0.2777427733,
337.0254822,0.2565270364,
335.9327393,0.2192683369,
334.9960022,0.2062246948,
334.0591431,0.1905251145,
332.9660034,0.1612974405,
332.0289001,0.1432731301,
330.9354553,0.1199604794,
329.9980774,0.1135759577,
329.0606079,0.1094780415,
327.9667358,0.1091441959,
327.0290222,0.1118594557,
325.9348755,0.1239053234,
324.9969177,0.1347832531,
324.0588379,0.1450318396,
322.9642639,0.1481959224,
322.0259399,0.1437892616,
320.9310913,0.1263001263,
319.9925232,0.1158709824,
319.0538635,0.106027402,
317.9586182,0.09199102968,
317.0196838,0.08189019561,
315.9241638,0.06764633209,
314.9850159,0.06258375198,
314.0457458,0.0590736419,
312.9497986,0.05682660267,
312.0103149,0.0567240864,
311.0707092,0.05877482146,
309.9743652,0.06106089056,
309.0345459,0.0617084913,
307.9379272,0.05982920527,
306.9978638,0.05665733665,
306.0576782,0.04981524497,
304.9606934,0.04451870173,
304.0202637,0.03883030266,
302.9230042,0.03306866065,
301.9823608,0.02955363132,
301.041626,0.02525426261,
299.9439697,0.02299911156,
299.0030212,0.02182012051,
298.0619507,0.02113999613,
296.9639282,0.02090888843,
296.022644,0.02052204497,
294.9243164,0.01986977272,
293.9828186,0.01935500279,
293.0411987,0.01835985482,
291.9425354,0.01703413203,
291.0007019,0.01362697314,
290.0587769,0.01153163705,
288.9597168,0.007849503309,
288.0175781,0.004602912813,
287.0753174,0.002353940392,
285.9759216,0.0008686693618,
285.0334473,0.0006618387415,
283.9337769,0.001097137691,
282.9910889,0.001003359328,
282.0483093,0.001454220619,
280.9483032,0.001588832471,
280.0053101,0.001780093648,
279.0622253,0.001804864965,
277.9618225,0.001625103294,
277.0185547,0.001893096836,
276.0751648,0.002798182191,
274.9744263,0.004573717248,
274.0308228,0.005670866929,
272.9298401,0.007865739986,
271.9860229,0.00926224608,
271.0421448,0.01198172569,
269.9407959,0.01440766454,
268.9967041,0.01786264963,
268.0525208,0.02093778923,
266.9508362,0.02579233795,
266.0064392,0.03296944872,
265.0619812,0.03986306861,
263.9599609,0.05296323448,
263.0152588,0.06583020836,
262.0704956,0.08333381265,
260.9681396,0.1371431202,
260.0231628,0.1801520288,
259.078125,0.2518643141,
257.9754333,0.426201582,
257.0301819,0.7123860121,
255.9272614,1.562368512,
254.9818115,2.177436352,
254.0362854,2.409577847,
252.9330444,2.727931499,
251.9873199,2.87851429,
251.0415039,2.852611065,
249.938324,2.816319942,

